150.182	249.807
150.799	248.037
151.417	248.093
152.034	250.063
152.651	249.837
153.269	248.392
153.886	249.697
154.503	249.363
155.12	248.896
155.737	248.982
156.354	247.498
156.971	247.556
157.588	246.825
158.205	244.371
158.822	244.55
159.439	239.808
160.056	241.421
160.673	244.24
161.289	244.441
161.906	243.226
162.523	243.463
163.139	243.712
163.756	243.099
164.372	242.255
164.989	240.341
165.605	240.674
166.222	241.75
166.838	239.591
167.452	241.133
168.069	241.404
168.685	243.222
169.301	242.207
169.917	242.144
170.533	242.855
171.15	242.701
171.766	242.757
172.382	242.503
172.998	241.91
173.614	242.584
174.23	239.426
174.843	240.348
175.459	242.878
176.075	242.421
176.691	241.364
177.306	239.968
177.922	241.067
178.538	242.146
179.153	241.369
179.769	241.786
180.382	240.313
180.997	242.23
181.613	239.129
182.228	241.124
182.844	241.208
183.459	240.62
184.074	238.407
184.687	240.581
185.302	241.654
185.918	242.317
186.533	242.381
187.148	241.759
187.763	242.353
188.376	241.679
188.991	241.707
189.606	240.556
190.22	240.737
190.835	241.516
191.448	242.687
192.063	242.296
192.677	242.886
193.292	242.792
193.907	242.823
194.519	242.974
195.134	240.549
195.748	241.317
196.363	241.01
196.977	240.798
197.589	242.826
198.204	244.055
198.818	243.093
199.432	243.303
200.044	243.531
200.659	243.798
201.273	243.681
201.887	242.52
202.499	245.325
203.113	245.624
203.727	244.577
204.341	230.025
204.952	244.623
205.566	243.991
206.18	247.174
206.794	248.741
207.406	249.012
208.019	248.237
208.633	251.03
209.245	250.949
209.858	253.168
210.472	253.389
211.083	253.46
211.697	254.54
212.31	257.934
212.924	260.015
213.535	260.377
214.148	261.682
214.761	265.067
215.372	269.904
215.986	272.438
216.599	275.571
217.21	282.21
217.823	283.439
218.436	289.079
219.047	293.844
219.66	297.02
220.27	300.62
220.883	304.493
221.496	306.589
222.107	309.059
222.72	311.036
223.333	311.534
223.943	313.47
224.556	312.913
225.166	311.959
225.779	311.996
226.391	312.215
227.002	312.011
227.614	311.886
228.224	310.383
228.837	309.704
229.449	308.294
230.059	305.669
230.672	303.111
231.282	300.208
231.894	296.762
232.506	291.523
233.116	289.604
233.728	285.228
234.338	281.078
234.95	277.287
235.56	274.999
236.172	272.244
236.783	269.182
237.393	266.506
238.005	265.899
238.615	262.132
239.226	261.834
239.836	259.84
240.447	258.699
241.057	256.022
241.668	255.989
242.278	255.019
242.889	254.907
243.499	251.846
244.11	252.712
244.719	251.744
245.331	251.839
245.94	250.457
246.551	249.701
247.16	195.209
247.771	249.189
248.38	249.679
248.991	246.754
249.6	247.136
250.211	247.821
250.82	247.082
251.431	248.434
252.04	247.305
252.651	245.342
253.259	245.281
253.868	246.922
254.479	246.022
255.087	246.773
255.698	245.214
256.306	245.672
256.917	245.844
257.525	244.971
258.133	245.452
258.744	244.976
259.352	245.677
259.963	245.242
260.571	245.38
261.181	245.763
261.789	244.219
262.397	245.083
263.008	244.202
263.616	244.537
264.226	244.66
264.834	244.855
265.441	244.837
266.051	243.447
266.659	238.969
267.267	242.657
267.877	243.798
268.485	242.181
269.094	241.487
269.702	243.854
270.31	242.789
270.919	243.201
271.527	243.879
272.134	242.314
272.744	243.249
273.351	243.203
273.958	240.55
274.568	243.631
275.175	241.759
275.782	242.641
276.392	243.069
276.999	242.914
277.606	242.077
278.215	243.45
278.822	242.752
279.429	243.226
280.036	243.238
280.645	243.065
281.252	241.963
281.859	242.082
282.468	243.985
283.075	243.851
283.681	244.347
284.288	242.99
284.897	242.226
285.504	243.273
286.11	243.289
286.717	243.436
287.325	243.852
287.932	232.42
288.538	242.841
289.144	243.894
289.753	244.031
290.359	244.296
290.965	244.35
291.572	241.582
292.18	243.211
292.786	243.557
293.392	244.72
293.998	243.788
294.604	244.691
295.213	242.856
295.818	242.797
296.424	242.98
297.03	244.771
297.636	243.233
298.244	242.801
298.85	244.161
299.455	243.291
300.061	243.849
300.667	242.753
301.275	243.331
301.88	241.814
302.486	243.606
303.091	241.299
303.696	243.673
304.302	243.513
304.909	242.719
305.515	242.557
306.12	241.53
306.725	243.277
307.33	243.792
307.936	243.535
308.541	241.86
309.146	243.188
309.753	240.223
310.358	241.385
310.963	242.015
311.568	241.169
312.173	243.602
312.778	243.876
313.383	243.223
313.987	241.618
314.592	243.496
315.199	241.231
315.804	242.336
316.408	243.584
317.013	243.393
317.617	243.533
318.222	243.056
318.826	242.432
319.431	243.082
320.035	242.55
320.64	243.246
321.244	241.884
321.848	244.171
322.452	243.793
323.057	243.055
323.661	243.773
324.265	243.869
324.869	244.692
325.473	244.028
326.077	245.166
326.683	242.85
327.287	245.582
327.891	245.237
328.495	245.095
329.099	244.798
329.703	244.99
330.306	244.814
330.91	244.318
331.514	244.639
332.117	246.108
332.721	245.552
333.322	243.41
333.926	244.84
334.529	245.516
335.133	246.712
335.736	246.677
336.339	245.809
336.943	245.583
337.546	245.537
338.149	245.685
338.752	247.213
339.356	245.404
339.959	246.376
340.562	245.91
341.165	246.605
341.768	247.067
342.371	247.127
342.974	246.852
343.577	245.618
344.177	247.02
344.78	246.57
345.383	246.693
345.986	246.463
346.589	246.078
347.191	247.006
347.794	246.084
348.396	247.807
348.999	246.003
349.602	246.315
350.202	246.463
350.804	246.072
351.407	247.707
352.009	247.743
352.611	248.585
353.214	247.903
353.816	246.476
354.416	248.445
355.018	248.691
355.62	248.786
356.222	248.585
356.824	247.815
357.426	247.602
358.026	246.75
358.628	247.477
359.23	247.908
359.832	249.04
360.434	248.919
361.036	249.614
361.635	249.161
362.237	247.951
362.839	249.358
363.44	248.784
364.042	250.291
364.641	250.82
365.243	249.762
365.844	250.756
366.446	249.875
367.045	249.464
367.646	249.282
368.248	251.062
368.849	250.981
369.45	250.941
370.049	251.057
370.65	250.831
371.252	250.745
371.853	250.826
372.452	250.319
373.053	251.378
373.654	250.356
374.252	251.756
374.853	251.665
375.454	251.624
376.055	250.259
376.654	251.751
377.254	251.262
377.855	249.758
378.454	251.295
379.054	251.067
379.655	250.837
380.256	249.96
380.854	250.218
381.454	251.4
382.055	251.309
382.653	251.082
383.254	249.505
383.854	250.292
384.452	250.247
385.052	250.29
385.653	249.287
386.251	250.364
386.851	248.317
387.451	249.898
388.049	251.151
388.649	251.47
389.249	251.418
389.847	251.254
390.447	250.473
391.044	249.884
391.644	249.959
392.244	251.756
392.842	251.772
393.441	252.233
394.039	250.275
394.638	251.798
395.238	251.556
395.836	251.384
396.435	251.73
397.032	251.123
397.632	251.073
398.231	250.864
398.829	250.208
399.428	251.578
400.025	251.87
400.624	252.629
401.221	252.022
401.821	252.228
402.42	252.107
403.017	252.379
403.616	251.452
404.213	253.421
404.812	253.42
405.409	252.165
406.008	252.191
406.604	253.851
407.203	253.655
407.8	253.416
408.399	253.186
408.995	254.497
409.594	254.826
410.191	254.59
410.789	254.772
411.386	255.451
411.984	254.986
412.581	255.865
413.179	255.287
413.775	255.386
414.374	256.305
414.97	255.301
415.568	254.17
416.164	254.015
416.763	255.723
417.359	255.844
417.957	255.534
418.553	256.12
419.151	256.91
419.747	255.88
420.343	256.162
420.941	256.598
421.537	255.375
422.135	257.001
422.73	255.71
423.328	257.851
423.924	257.038
424.52	257.967
425.117	256.929
425.713	256.125
426.31	256.858
426.906	258.342
427.501	257.23
428.099	258.33
428.694	257.852
429.292	256.396
429.887	258.272
430.482	258.758
431.08	256.887
431.675	258.622
432.27	255.623
432.867	258.829
433.462	258.509
434.059	258.634
434.654	259.605
435.249	259.487
435.846	258.397
436.441	259.417
437.036	258.957
437.633	257.782
438.228	259.179
438.822	260.295
439.419	259.52
440.014	260.117
440.609	260.342
441.205	258.813
441.8	259.839
442.394	260.725
442.989	258.976
443.585	258.939
444.18	258.271
444.774	260.2
445.371	260.982
445.965	259.874
446.559	258.419
447.153	260.795
447.75	260.426
448.344	260.572
448.938	260.646
449.532	259.286
450.128	261.193
450.722	260.443
451.316	260.175
451.91	260.51
452.506	260.014
453.1	259.776
453.693	258.929
454.287	260.975
454.883	259.923
455.477	261.689
456.07	260.745
456.664	261.989
457.257	260.526
457.853	261.809
458.447	260.291
459.04	259.926
459.633	262.141
460.227	262.76
460.822	261.507
461.416	261.979
462.009	262.967
462.602	263.017
463.195	263.614
463.788	260.85
464.384	262.479
464.977	263.078
465.57	262.039
466.163	263.51
466.756	263.062
467.349	262.808
467.941	263.257
468.537	263.386
469.129	263.819
469.722	262.435
470.315	261.015
470.908	263.204
471.5	262.595
472.093	263.217
472.685	263.506
473.28	261.839
473.873	262.596
474.465	263.52
475.058	261.405
475.65	263.519
476.242	262.144
476.835	261.172
477.427	262.236
478.019	263.775
478.611	263.208
479.204	262.393
479.796	263.975
480.388	263.208
480.98	262.983
481.574	263.756
482.166	264.676
482.758	264.666
483.35	265.186
483.942	264.114
484.534	264.855
485.125	264.405
485.717	265.116
486.309	264.761
486.901	261.422
487.492	263.945
488.084	265.785
488.676	265.823
489.267	265.172
489.859	263.746
490.45	263.466
491.042	265.797
491.633	265.383
492.224	265.127
492.816	264.911
493.407	264.799
493.998	266.068
494.589	264.567
495.181	264.676
495.772	264.488
496.361	265.818
496.952	266.261
497.543	264.606
498.134	266.741
498.725	264.548
499.316	263.981
499.906	265.488
500.497	265.517
501.088	266.205
501.679	266.057
502.27	266.623
502.86	265.782
503.451	266.884
504.042	264.999
504.63	266.333
505.221	267.374
505.811	266.704
506.402	264.698
506.992	266.86
507.582	266.112
508.173	264.306
508.763	265.584
509.351	266.793
509.941	266.767
510.532	265.637
511.122	266.909
511.712	265.288
512.302	267.333
512.892	265.398
513.48	266.855
514.07	267.283
514.66	266.849
515.25	268.039
515.84	267.911
516.43	267.889
517.017	266.773
517.607	267.095
518.197	266.951
518.787	268.832
519.376	268.141
519.964	266.335
520.553	267.431
521.143	266.295
521.732	267.744
522.322	267.707
522.909	269.265
523.499	268.431
524.088	269.083
524.677	268.836
525.264	268.109
525.854	267.989
526.443	268.688
527.032	268.234
527.619	270.045
528.208	269.564
528.797	269.472
529.386	268.065
529.973	269.441
530.562	268.21
531.151	269.258
531.738	270.331
532.327	268.65
532.915	269.751
533.504	267.109
534.091	269.998
534.679	270.271
535.268	269.236
535.855	267.881
536.443	270.708
537.032	269.496
537.618	270.13
538.207	267.612
538.795	270.939
539.381	270.06
539.97	269.909
540.558	269.322
541.144	269.503
541.732	269.868
542.321	269.502
542.907	270.454
543.495	270.352
544.083	269.381
544.669	270.496
545.257	268.901
545.843	270.872
546.431	269.976
547.019	269.721
547.604	269.305
548.192	270.861
548.78	269.795
549.366	269.111
549.954	269.264
550.539	268.943
551.127	270.416
551.712	268.615
552.3	270.584
552.888	270.271
553.473	270.2
554.06	269.776
554.646	269.796
555.233	269.557
555.818	269.383
556.406	270.364
556.993	271.763
557.578	271.443
558.165	270.134
558.75	269.439
559.338	271.126
559.923	271.922
560.51	272.404
561.095	271.974
561.682	270.821
562.266	271.981
562.853	269.685
563.438	271.13
564.025	271.112
564.61	271.466
565.197	272.538
565.781	270.523
566.368	271.698
566.952	272.349
567.539	271.836
568.124	271.28
568.71	272.144
569.295	270.968
569.881	274.112
570.465	273.629
571.05	274.028
571.636	273.358
572.22	272.353
572.807	271.68
573.391	273.46
573.977	273.831
574.561	274.257
575.147	271.734
575.731	272.807
576.315	272.159
576.901	273.703
577.485	273.276
578.071	272.516
578.655	272.082
579.239	272.136
579.825	273.02
580.408	272.592
580.994	270.808
581.578	273.702
582.161	273.053
582.747	272.109
583.331	271.737
583.914	273.371
584.5	272.85
585.083	272.228
585.667	271.403
586.252	270.758
586.835	271.118
587.421	271.794
588.004	269.368
588.587	270.077
589.173	269.893
589.756	267.603
590.339	269.5
590.922	269.013
591.507	268.229
592.09	268.904
592.673	267.274
593.258	267.633
593.841	267.98
594.424	268.276
595.009	268.875
595.591	265.457
596.174	268.463
596.757	267.45
597.342	268.765
597.924	268.472
598.507	268.493
599.089	268.88
599.674	268.561
600.257	267.337
600.839	266.596
601.421	265.864
602.006	267.531
602.588	267.406
603.171	267.537
603.753	268.889
604.337	267.637
604.919	268.341
605.502	264.878
606.084	266.227
606.666	267.237
607.25	265.783
607.832	267.85
608.414	267.772
608.996	268.463
609.578	268.579
610.162	267.244
610.744	267.648
611.325	265.807
611.907	266.427
612.489	267.957
613.07	269.003
613.654	267.756
614.236	267.702
614.818	268.835
615.399	267.746
615.981	267.949
616.562	266.608
617.146	268.062
617.727	267.073
618.308	266.524
618.89	268.099
619.471	268.035
620.052	265.95
620.633	267.037
621.215	266.188
621.796	265.763
622.379	265.978
622.96	267.306
623.541	267.129
624.122	265.596
624.703	266.378
625.284	266.361
625.865	265.487
626.446	265.844
627.026	266.887
627.607	266.581
628.188	264.315
628.769	266.217
629.349	266.266
629.93	265.897
630.511	265.982
631.093	264.306
631.674	265.67
632.254	265.137
632.835	264.792
633.415	264.11
633.996	266.823
634.576	265.612
635.156	265.63
635.737	265.052
636.317	266.768
636.897	265.411
637.477	266.83
638.057	267.074
638.638	267.107
639.218	264.968
639.798	266.85
640.378	267.302
640.958	265.77
641.535	266.649
642.115	265.434
642.695	267.609
643.275	266.852
643.855	265.977
644.434	266.771
645.014	264.475
645.594	266.28
646.173	265.054
646.753	266.468
647.333	267.009
647.912	264.705
648.492	266.838
649.071	262.076
649.65	265.036
650.228	264.727
650.807	266.172
651.386	266.85
651.966	264.218
652.545	263.382
653.124	265.895
653.703	265.385
654.282	266.598
654.859	266.474
655.438	264.812
656.017	267.333
656.596	267.134
657.175	267.108
657.754	267.502
658.333	265.873
658.91	265.023
659.489	267.6
660.067	267.052
660.646	265.124
661.225	266.099
661.804	266.862
662.38	267.024
662.959	265.29
663.537	266.154
664.116	267.899
664.694	267.358
665.271	266.248
665.849	266.744
666.427	267.822
667.006	267.092
667.584	266.525
668.16	265.919
668.738	267.251
669.317	266.635
669.895	264.758
670.471	266.597
671.049	267.544
671.627	265.445
672.205	267.013
672.781	266.296
673.359	266.963
673.937	268.134
674.515	267.811
675.09	266.401
675.668	267.736
676.246	266.52
676.821	268.361
677.399	267.248
677.977	268.071
678.555	266.653
679.13	267.719
679.708	267.769
680.285	267.862
680.86	267.594
681.438	267.82
682.015	269.64
682.591	264.674
683.168	269.347
683.745	269.219
684.32	269.677
684.898	270.113
685.475	269.156
686.05	269.984
686.627	271.334
687.204	268.686
687.779	269.709
688.356	270.482
688.931	271.074
689.508	270.657
690.085	270.886
690.66	271.914
691.236	272.623
691.811	271.69
692.388	271.798
692.965	272.859
693.539	272.664
694.116	273.144
694.69	274.014
695.267	272.031
695.844	274.847
696.418	272.959
696.995	274.722
697.569	273.46
698.145	275.498
698.719	273.852
699.296	276.05
699.872	274.046
700.446	275.846
701.023	277.965
701.597	277.971
702.173	278.347
702.747	278.159
703.323	278.004
703.897	277.614
704.473	278.477
705.047	278.618
705.623	278.287
706.197	278.918
706.773	279.415
707.346	280.639
707.922	280.045
708.496	281.937
709.071	282.11
709.645	282.717
710.221	284.512
710.794	284.722
711.37	285.786
711.943	285.146
712.517	286.689
713.092	287.808
713.666	287.158
714.241	289.766
714.814	289.462
715.39	289.398
715.963	288.965
716.538	291.119
717.111	291.551
717.684	291.694
718.26	291.884
718.833	294.314
719.408	293.812
719.981	295.333
720.554	294.844
721.129	296.857
721.701	296.674
722.276	297.373
722.849	298.191
723.422	297.958
723.997	299.387
724.569	300.871
725.142	302.206
725.717	303.39
726.289	302.742
726.862	302.93
727.437	304.489
728.009	304.194
728.581	305.453
729.156	305.477
729.728	303.988
730.301	308.164
730.875	308.034
731.447	307.618
732.02	309.013
732.594	310.656
733.166	309.556
733.738	309.616
734.312	311.295
734.884	310.465
735.456	312.258
736.028	312.031
736.602	313.583
737.174	313.488
737.746	312.067
738.318	314.171
738.892	315.244
739.464	316.459
740.035	315.783
740.609	315.829
741.181	316.732
741.753	314.91
742.324	317.78
742.896	317.091
743.469	317.573
744.041	315.101
744.612	317.629
745.184	317.228
745.757	317.986
746.328	316.625
746.9	316.97
747.471	315.296
748.042	316.161
748.616	296.892
749.187	314.896
749.758	315.263
750.329	316.022
750.9	315.797
751.471	315.683
752.044	312.258
752.615	313.381
753.186	313.947
753.757	314.175
754.328	314.199
754.899	314.115
755.469	313.646
756.042	314.195
756.311	310.948
756.886	311.312
757.458	310.844
758.033	312.306
758.608	311.091
759.183	309.47
759.758	309.277
760.332	309.982
760.905	309.039
761.48	307.807
762.054	306.617
762.629	304.75
763.203	306.767
763.778	306.29
764.35	305.25
764.925	304.38
765.499	305.499
766.074	303.683
766.648	304.345
767.22	302.876
767.794	303.224
768.369	302.788
768.943	303.196
769.517	301.904
770.089	300.283
770.663	299.798
771.237	299.47
771.811	300.193
772.385	299.587
772.957	298.501
773.531	291.292
774.105	294.976
774.679	295.526
775.251	296.389
775.824	295.459
776.398	295.919
776.972	290.896
777.543	293.93
778.117	294.913
778.691	290.741
779.262	292.392
779.836	291.971
780.409	292.791
780.983	290.302
781.554	290.524
782.127	292.614
782.701	291.869
783.272	291.236
783.845	291.51
784.418	291.821
784.99	291.527
785.563	291.81
786.136	291.033
786.709	290.02
787.28	290.075
787.853	288.294
788.426	233.041
788.997	288.446
789.57	288.082
790.143	285.718
790.714	284.692
791.286	285.532
791.857	285.599
792.43	286.25
793.003	285.104
793.573	285.418
794.146	284.382
794.718	283.742
795.289	283.22
795.861	282.885
796.432	283.219
797.004	283.782
797.577	281.838
798.147	282.793
798.719	281.617
799.29	281.991
799.862	280.424
800.434	280.868
801.004	280.632
801.577	279.146
802.147	281.653
802.719	279.556
803.291	279.305
803.861	278.774
804.433	279.111
805.003	277.964
805.575	278.356
806.144	277.832
806.716	271.476
807.286	277.53
807.858	277.459
808.43	277.249
808.999	276.961
809.571	276.564
810.141	276.578
810.712	276.069
811.282	275.691
811.853	277.137
812.423	278.04
812.994	277.244
813.564	276.764
814.135	276.418
814.704	277.557
815.276	277.68
815.845	275.468
816.416	276.13
816.985	276.664
817.557	274.736
818.126	276.159
818.697	276.014
819.266	276.35
819.835	275.731
820.406	272.917
820.975	276.578
821.546	275.379
822.115	277.022
822.685	275.64
823.254	275.901
823.825	275.545
824.394	273.711
824.962	275.838
825.533	273.867
826.102	276.543
826.672	265.624
827.241	274.145
827.812	275.357
828.38	273.625
828.948	274.908
829.519	274.253
830.087	276.465
830.658	275.742
831.226	276.861
831.794	276.056
832.364	274.255
832.933	277.248
833.501	276.118
834.071	277.322
834.639	275.786
835.209	276.584
835.777	274.569
836.345	275.955
836.915	276.867
837.483	275.76
838.051	275.563
838.621	275.222
839.189	276.531
839.756	276.37
840.326	274.283
840.894	273.326
841.462	274.693
842.031	275.34
842.599	275.853
843.166	275.02
843.736	275.609
844.304	275.536
844.871	275.58
845.438	275.758
846.008	272.146
846.575	274.005
847.142	275.626
847.712	276.197
848.279	275.517
848.846	276.427
849.413	276.201
849.983	275.133
850.55	275.148
851.117	277.045
851.684	275.259
852.253	276.757
852.82	276.429
853.387	278.288
853.954	277.911
854.523	277.163
855.089	277.997
855.656	278.16
856.223	278.497
856.792	277.147
857.359	278.719
857.925	278.474
858.492	279.883
859.058	280.093
859.627	280.428
860.193	280.59
860.76	278.658
861.326	279.542
861.893	279.944
862.461	280.6
863.028	282.565
863.594	278.807
864.16	282.416
864.726	281.947
865.293	281.651
865.861	281.191
866.427	282.526
866.993	281.585
867.559	282.996
868.125	279.984
868.691	280.859
869.257	282.186
869.825	282.843
870.391	283.224
870.957	282.566
871.523	281.296
872.088	283.787
872.654	283.711
873.22	284.483
873.786	282.001
874.353	282.061
874.919	285.803
875.484	284.951
876.05	284.722
876.616	284.052
877.181	283.392
877.746	284.603
878.312	285.908
878.877	287.09
879.443	287.706
880.008	286.343
880.573	289.86
881.138	290.175
881.706	290.044
882.271	289.012
882.836	290.046
883.401	290.783
883.966	290.496
884.531	289.589
885.096	288.532
885.661	287.668
886.226	286.788
886.791	288.773
887.356	287.91
887.92	288.289
888.485	287.07
889.05	288.15
889.615	288.928
890.179	289.704
890.744	288.346
891.309	287.973
891.873	289.891
892.438	290.668
893.002	288.868
893.567	288.317
894.131	290.313
894.696	290.967
895.26	290.494
895.824	290.155
896.389	292.477
896.953	290.743
897.515	291.458
898.079	292.83
898.643	291.517
899.207	292.952
899.772	292.467
900.336	290.676
900.9	293.192
901.464	292.384
902.028	292.574
902.592	292.04
903.155	291.476
903.719	292.649
904.283	293.495
904.845	293.657
905.409	293.6
905.972	293.326
906.536	289.769
907.1	291.841
907.663	292.409
908.227	290.813
908.79	290.646
909.352	292.654
909.915	291.36
910.479	291.761
911.042	292.279
911.605	292.288
912.169	292.039
912.732	293.754
913.293	293.751
913.857	294.534
914.42	292.332
914.983	294.073
915.546	290.361
916.109	295.027
916.67	295.211
917.233	293.336
917.796	293.484
918.359	293.157
918.922	293.936
919.483	293.918
920.046	294.394
920.608	294.725
921.171	293.169
921.734	296.295
922.295	295.2
922.857	295.809
923.42	296.063
923.983	295.182
924.543	296.915
925.106	295.146
925.668	295.975
926.231	294.329
926.791	296.265
927.353	296.311
927.916	297.11
928.478	296.594
929.038	295.859
929.601	294.722
930.163	294.641
930.723	295.13
931.285	296.733
931.847	296.338
932.409	296.73
932.969	294.599
933.531	294.843
934.094	298.036
934.653	294.555
935.215	297.529
935.777	296.192
936.337	296.251
936.899	297.888
937.461	298.948
938.02	297.389
938.582	298.281
939.144	298.071
939.703	298.356
940.265	297.881
940.827	298.849
941.386	297.298
941.948	299.068
942.509	297.573
943.068	300.021
943.63	299.011
944.191	298.786
944.751	298.509
945.312	300.554
945.871	300.501
946.432	298.809
946.994	300.977
947.553	300.21
948.114	300.341
948.673	299.294
949.234	300.653
949.795	301.815
950.354	300.457
950.915	300.772
951.474	301.33
952.035	300.93
952.596	298.946
953.154	298.978
953.715	301.648
954.274	300.733
954.835	301.682
955.393	302.714
955.954	302.117
956.512	302.227
957.073	301.294
957.632	301.392
958.192	300.404
958.751	300.736
959.311	300.608
959.871	296.436
960.43	297.519
960.99	299.281
961.548	298.642
962.109	300.33
962.667	299.295
963.227	299.088
963.785	299.236
964.345	300.182
964.904	298.337
965.462	299.257
966.022	296.222
966.58	299.47
967.14	298.006
967.697	298.927
968.257	296.174
968.815	297.196
969.375	297.881
969.933	295.794
970.493	297.603
971.05	297.46
971.608	295.537
972.168	297.14
972.725	296.724
973.285	294.722
973.842	297
974.402	295.843
974.959	296.555
975.517	297.568
976.076	296.589
976.634	296.325
977.193	294.707
977.75	295.024
978.307	294.949
978.867	295.991
979.424	296.695
979.981	296.492
980.54	297.483
981.097	297.118
981.656	293.744
982.214	295.082
982.77	296.034
983.329	297.732
983.886	296.534
984.443	296.75
985.002	297.382
985.559	296.494
986.116	298.017
986.675	297.459
987.231	298.104
987.788	297.631
988.347	296.211
988.903	296.661
989.46	294.639
990.018	296.677
990.575	298.067
991.131	296.785
991.688	296.833
992.246	293.596
992.803	298.209
993.359	297.438
993.917	295.851
994.474	295.401
995.03	298.914
995.586	297.587
996.144	297.754
996.701	297.973
997.257	299.712
997.813	299.88
998.371	300.628
998.927	298.15
999.483	299.519
1000.04	298.752
1000.6	300.665
1001.15	299.417
1001.71	300.658
1002.26	301.322
1002.82	299.234
1003.38	299.249
1003.93	300.222
1004.49	298.237
1005.04	298.191
1005.6	299.26
1006.16	298.685
1006.71	298.03
1007.27	297
1007.82	297.424
1008.38	296.996
1008.94	297.273
1009.49	294.75
1010.05	296.528
1010.6	296.631
1011.16	296.292
1011.71	296.417
1012.27	296.743
1012.83	297.205
1013.38	296.554
1013.94	298.356
1014.49	297.346
1015.05	297.477
1015.6	299.372
1016.16	297.416
1016.71	298.753
1017.27	296.403
1017.82	298.213
1018.38	300.342
1018.93	299.698
1019.49	299.039
1020.04	298.728
1020.6	300.466
1021.15	300.499
1021.71	298.011
1022.26	301.32
1022.82	300.915
1023.37	299.102
1023.93	296.677
1024.48	301.461
1025.04	299.978
1025.59	301.203
1026.14	300.901
1026.7	301.593
1027.25	302.1
1027.81	301.004
1028.36	300.946
1028.92	302.422
1029.47	299.082
1030.02	301.145
1030.58	302.183
1031.13	301.899
1031.69	303.758
1032.24	302.36
1032.79	302.335
1033.35	302.809
1033.9	302.173
1034.46	304.33
1035.01	304.229
1035.56	304.039
1036.12	302.999
1036.67	304.255
1037.22	302.932
1037.78	303.903
1038.33	301.797
1038.89	303.508
1039.44	302.609
1039.99	302.589
1040.54	303.073
1041.1	303.677
1041.65	305.05
1042.2	303.776
1042.76	304.445
1043.31	304.133
1043.86	304.434
1044.42	303.606
1044.97	304.782
1045.52	305.315
1046.08	304.446
1046.63	303.805
1047.18	304.691
1047.73	305.097
1048.29	303.725
1048.84	305.629
1049.39	305.836
1049.95	306.158
1050.5	305.113
1051.05	306.003
1051.6	304.237
1052.16	305.135
1052.71	304.797
1053.26	304.523
1053.81	303.963
1054.37	304.594
1054.92	305.99
1055.47	305.564
1056.02	305.711
1056.57	307.881
1057.13	304.65
1057.68	307.728
1058.23	306.563
1058.78	307.889
1059.33	306.641
1059.89	307.82
1060.44	308.297
1060.99	306.461
1061.54	305.742
1062.09	307.903
1062.65	306.308
1063.2	307.762
1063.75	307.724
1064.3	306.3
1064.85	306.303
1065.4	306.872
1065.95	306.343
1066.51	305.318
1067.06	303.667
1067.61	304.771
1068.16	304.615
1068.71	306.791
1069.26	304.617
1069.81	306.036
1070.36	306.895
1070.92	306.326
1071.47	306.251
1072.02	304.819
1072.57	305.638
1073.12	305.963
1073.67	307.377
1074.22	308.873
1074.77	307.058
1075.32	308.546
1075.87	308.405
1076.42	308.576
1076.97	308.217
1077.53	308.045
1078.08	309.794
1078.63	310.624
1079.18	311.082
1079.73	309.819
1080.28	311.494
1080.83	310.982
1081.38	313.908
1081.93	314.385
1082.48	313.179
1083.03	314.505
1083.58	313.424
1084.13	313.243
1084.68	314.851
1085.23	315.201
1085.78	314.376
1086.33	314.955
1086.88	316.618
1087.43	316.619
1087.98	315.899
1088.53	315.608
1089.08	316.901
1089.63	316.029
1090.18	316.692
1090.73	317.49
1091.28	317.669
1091.83	316.548
1092.37	316.342
1092.92	317.579
1093.48	316.708
1094.02	315.531
1094.57	316.856
1095.12	316.498
1095.67	317.493
1096.22	316.313
1096.77	317.693
1097.32	315.622
1097.87	317.785
1098.42	316.715
1098.97	317.061
1099.51	316.35
1100.06	314.588
1100.61	315.913
1101.16	314.415
1101.71	315.151
1102.26	315.043
1102.81	314.524
1103.36	313.739
1103.9	313.376
1104.45	314.167
1105	310.797
1105.55	313.36
1106.1	313.599
1106.65	311.695
1107.2	312.362
1107.74	313.121
1108.29	309.4
1108.84	313.079
1109.39	312.046
1109.94	310.423
1110.48	311.005
1111.03	311.831
1111.58	308.508
1112.13	311.172
1112.68	311.208
1113.23	310.942
1113.77	309.525
1114.32	310.275
1114.87	312.332
1115.42	310.308
1115.96	311.106
1116.51	312.215
1117.06	313.231
1117.61	311.141
1118.15	320.058
1118.7	325.063
1119.25	329.142
1119.8	330.903
1120.34	334.835
1120.89	341.161
1121.44	338.695
1121.98	340.09
1122.53	340.284
1123.08	337.359
1123.63	338.185
1124.17	335.393
1124.72	333.149
1125.27	331.452
1125.82	328.171
1126.36	325.011
1126.91	317.991
1127.45	312.658
1128	310.325
1128.55	310.274
1129.09	305.413
1129.64	308.749
1130.19	307.95
1130.74	305.384
1131.28	308.061
1131.83	308.816
1132.38	306.696
1132.92	307.221
1133.47	306.393
1134.01	306.46
1134.56	306.052
1135.11	308.135
1135.65	306.11
1136.2	307.023
1136.75	306.23
1137.29	306.151
1137.84	305.797
1138.38	305.834
1138.93	306.187
1139.48	303.97
1140.02	306.728
1140.57	305.265
1141.11	305.034
1141.66	306.319
1142.2	306.431
1142.75	304.987
1143.3	304.637
1143.84	303.703
1144.39	306.176
1144.93	305.901
1145.48	305.553
1146.02	304.339
1146.57	305.648
1147.11	304.327
1147.66	305.98
1148.2	306.591
1148.75	304.133
1149.3	306.081
1149.84	307.232
1150.39	302.928
1150.93	306.135
1151.47	306.442
1152.02	305.545
1152.56	307.31
1153.11	307.03
1153.65	304.765
1154.2	306.135
1154.74	304.49
1155.29	306.96
1155.83	306.678
1156.38	304.322
1156.92	305.798
1157.47	304.276
1158.01	305.358
1158.56	305.516
1159.1	303.896
1159.64	305.841
1160.19	303.627
1160.73	304.812
1161.28	304.077
1161.82	303.943
1162.37	303.321
1162.91	303.234
1163.45	303.638
1164	305.154
1164.54	301.271
1165.09	305.127
1165.63	302.956
1166.17	303.981
1166.72	304.449
1167.26	303.58
1167.81	303.47
1168.35	302.429
1168.89	302.326
1169.44	303.119
1169.98	303.872
1170.52	304.281
1171.07	305.302
1171.61	303.986
1172.15	305.304
1172.7	305.062
1173.24	302.436
1173.79	305.742
1174.33	303.835
1174.87	303.594
1175.41	303.902
1175.96	304.735
1176.5	304.503
1177.04	305.321
1177.59	305.953
1178.13	304.992
1178.67	303.224
1179.22	304.35
1179.76	304.717
1180.3	303.253
1180.84	302.55
1181.39	305.144
1181.93	304.41
1182.47	305.162
1183.02	304.4
1183.56	305.719
1184.1	304.139
1184.64	305.413
1185.18	303.638
1185.73	305.027
1186.27	305.098
1186.81	306.76
1187.36	305.77
1187.9	304.291
1188.44	304.881
1188.98	304.862
1189.52	306.959
1190.07	306.414
1190.61	304.705
1191.15	305.925
1191.69	304.257
1192.23	306.782
1192.78	304.205
1193.32	305.522
1193.86	306.619
1194.4	307.157
1194.94	306.389
1195.48	305.554
1196.03	306.89
1196.57	307.062
1197.11	307.496
1197.65	307.95
1198.19	306.134
1198.73	308.234
1199.28	308.607
1199.82	307.572
1200.36	308.547
1200.9	306.636
1201.44	306.235
1201.98	307.133
1202.52	308.577
1203.06	309.547
1203.6	309.56
1204.15	308.891
1204.69	309.461
1205.23	309.413
1205.77	309.033
1206.31	310.2
1206.85	310.482
1207.39	309.196
1207.93	306.497
1208.47	309.673
1209.01	310.198
1209.55	310.954
1210.09	309.557
1210.64	311.587
1211.18	311.096
1211.72	308.747
1212.26	306.961
1212.8	310.37
1213.34	310.138
1213.88	310.574
1214.42	312.198
1214.96	312.142
1215.5	309.576
1216.04	310.954
1216.58	310.915
1217.12	310.381
1217.66	311.664
1218.2	311.558
1218.74	309.419
1219.28	311.178
1219.82	311.384
1220.36	311.067
1220.9	311.201
1221.44	311.419
1221.98	310.217
1222.52	312.011
1223.06	310.112
1223.6	313.777
1224.14	314.128
1224.67	312.76
1225.22	315.346
1225.75	314.308
1226.29	315.574
1226.83	314.844
1227.37	316.074
1227.91	315.772
1228.45	314.26
1228.99	314.727
1229.53	315.45
1230.07	316.467
1230.61	315.284
1231.15	315.757
1231.69	316.017
1232.22	316.541
1232.76	317.064
1233.3	315.871
1233.84	317.33
1234.38	317.678
1234.92	317.669
1235.46	318.131
1235.99	317.211
1236.53	317.858
1237.07	318.942
1237.61	318.033
1238.15	319.196
1238.69	319.312
1239.23	318.47
1239.76	319.246
1240.3	317.501
1240.84	317.373
1241.38	318.835
1241.92	317.822
1242.45	318.255
1242.99	317.647
1243.53	317.716
1244.07	313.485
1244.61	317.738
1245.15	318.597
1245.68	318.863
1246.22	318.118
1246.76	316.942
1247.3	318.21
1247.83	319.372
1248.37	316.945
1248.91	319.249
1249.45	319.741
1249.98	319.323
1250.52	319.826
1251.06	319.883
1251.6	319.652
1252.13	318.365
1252.67	319.699
1253.21	320.55
1253.75	319.209
1254.28	319.609
1254.82	318.193
1255.36	319.526
1255.9	318.839
1256.43	318.663
1256.97	320.611
1257.51	317.86
1258.04	319.21
1258.58	318.882
1259.12	319.432
1259.65	320
1260.19	320.03
1260.73	320.218
1261.27	320.755
1261.8	303.299
1262.34	320.18
1262.87	320.231
1263.41	320.204
1263.95	320.559
1264.48	319.465
1265.02	321.152
1265.56	320.233
1266.09	320.982
1266.4	322.332
1266.94	320.98
1267.48	321.17
1268.02	322.583
1268.56	322.796
1269.1	321.649
1269.64	321.924
1270.18	322.884
1270.72	323.277
1271.26	323.237
1271.8	324.227
1272.34	323.175
1272.88	324.579
1273.42	323.25
1273.96	324.572
1274.5	324.684
1275.04	325.086
1275.58	325.287
1276.11	322.813
1276.65	325.855
1277.19	326.418
1277.73	326.356
1278.27	325.384
1278.81	326.368
1279.35	324.214
1279.89	325.817
1280.43	326.837
1280.97	324.581
1281.5	327.023
1282.04	325.549
1282.58	327.208
1283.12	325.364
1283.66	326.788
1284.2	326.771
1284.74	327.015
1285.28	322.776
1285.81	326.722
1286.35	326.754
1286.89	327.049
1287.43	328.539
1287.97	327.823
1288.51	327.258
1289.05	328.682
1289.58	328.397
1290.12	327.574
1290.66	329.357
1291.2	327.836
1291.74	328.594
1292.27	330.075
1292.81	330.019
1293.35	330.652
1293.89	327.407
1294.43	331.183
1294.96	331.427
1295.5	330.787
1296.04	331.347
1296.58	331.019
1297.12	331.498
1297.65	332.297
1298.19	331.415
1298.73	331.834
1299.27	277.127
1299.8	330.67
